Potential	Current	E	I	E	I	E	I	E	I	E	I
V	A	V	A	V	A	V	A	V	A	V	A
	3.2 mHz		8 mHz		16 mHz		32.5 mHz		73.5 mHz		165 mHz
1.95265E-5	-2.91169E-11	2.5177E-5	-2.84207E-11	1.21832E-5	-3.86596E-11	1.07288E-5	-4.04954E-11	8.86917E-6	-3.75032E-11	3.88622E-6	-3.78609E-11
0.00202	1.77085E-11	0.00502	8.49688E-11	0.01001	2.08056E-10	0.01924	4.40705E-10	0.05	1.19756E-9	0.125	2.9631E-9
0.00402	6.38258E-11	0.01002	1.96978E-10	0.02001	4.51183E-10	0.03847	9.07981E-10	0.10001	2.35599E-9	0.24997	5.49897E-9
0.00602	1.09723E-10	0.01502	3.07331E-10	0.03001	6.89948E-10	0.0577	1.35993E-9	0.15001	3.42005E-9	0.24997	5.2762E-9
0.00802	1.56138E-10	0.02002	4.17615E-10	0.04001	9.25446E-10	0.07693	1.80091E-9	0.20001	4.3836E-9	0.12501	2.70081E-9
0.01002	2.01535E-10	0.02503	5.26201E-10	0.05001	1.15507E-9	0.09616	2.23055E-9	0.24997	5.22877E-9	5.4121E-6	-8.11458E-11
0.01202	2.45855E-10	0.03003	6.33948E-10	0.06002	1.38158E-9	0.11539	2.63288E-9	0.24997	5.1042E-9	-0.12501	-3.17616E-9
0.01402	2.9125E-10	0.03503	7.38214E-10	0.07002	1.61011E-9	0.13463	3.02918E-9	0.20002	4.10527E-9	-0.24999	-6.55698E-9
0.01602	3.354E-10	0.04003	8.42097E-10	0.08002	1.82625E-9	0.15386	3.4077E-9	0.15001	3.1397E-9	-0.24999	-6.68541E-9
0.01802	3.80094E-10	0.04502	9.44958E-10	0.09002	2.0468E-9	0.17309	3.76863E-9	0.10001	2.13414E-9	-0.12501	-3.32006E-9
0.02001	4.25456E-10	0.05002	1.04908E-9	0.10002	2.25446E-9	0.19232	4.09535E-9	0.05001	1.06763E-9	1.01805E-5	-4.01735E-12
0.02202	4.69592E-10	0.05502	1.14754E-9	0.11002	2.46919E-9	0.21151	4.4238E-9	9.82285E-6	-6.17743E-11		
0.02402	5.13728E-10	0.06003	1.24522E-9	0.12002	2.66134E-9	0.23076	4.72667E-9	-0.05001	-1.2592E-9		
0.02602	5.55894E-10	0.06502	1.3488E-9	0.13001	2.86432E-9	0.24998	5.00984E-9	-0.1	-2.51051E-9		
0.02802	6.02686E-10	0.07003	1.44551E-9	0.14001	3.05293E-9	0.24998	4.96693E-9	-0.15	-3.833E-9		
0.03002	6.46152E-10	0.07502	1.54435E-9	0.15002	3.23421E-9	0.22998	4.56194E-9	-0.2	-5.22029E-9		
0.03202	6.88401E-10	0.08003	1.63851E-9	0.16002	3.40631E-9	0.20999	4.1944E-9	-0.24998	-6.67186E-9		
0.03403	7.33055E-10	0.08502	1.73588E-9	0.17001	3.5764E-9	0.19002	3.81943E-9	-0.24998	-6.82502E-9		
0.03603	7.7561E-10	0.09002	1.81298E-9	0.18002	3.73458E-9	0.17002	3.43261E-9	-0.2	-5.50231E-9		
0.03802	8.16414E-10	0.09503	1.90954E-9	0.19002	3.89336E-9	0.15002	3.07081E-9	-0.15	-4.11111E-9		
0.04002	8.59408E-10	0.10003	1.99055E-9	0.20002	4.05806E-9	0.13001	2.69874E-9	-0.1	-2.71209E-9		
0.04202	8.97804E-10	0.10502	2.08031E-9	0.20998	4.20375E-9	0.11002	2.30684E-9	-0.05	-1.33837E-9		
0.04402	9.38892E-10	0.11002	2.15887E-9	0.21999	4.33758E-9	0.09002	1.89897E-9	1.44482E-5	-2.01702E-11		
0.04601	9.81977E-10	0.11503	2.24365E-9	0.22996	4.48112E-9	0.07001	1.48703E-9				
0.04802	1.02616E-9	0.12003	2.32741E-9	0.23999	4.62842E-9	0.05001	1.06285E-9				
0.05001	1.06675E-9	0.12502	2.411E-9	0.24997	4.75438E-9	0.03002	6.26075E-10				
0.05202	1.11101E-9	0.13002	2.49771E-9	0.24998	4.6926E-9	0.01001	1.79255E-10				
0.05402	1.14943E-9	0.13503	2.57295E-9	0.23999	4.51123E-9	-0.01	-2.82466E-10				
0.05602	1.18521E-9	0.14002	2.65443E-9	0.22997	4.31653E-9	-0.03001	-7.54988E-10				
0.05802	1.2295E-9	0.14502	2.72714E-9	0.21999	4.17032E-9	-0.05001	-1.24046E-9				
0.06001	1.27161E-9	0.15002	2.80156E-9	0.20998	3.96255E-9	-0.07001	-1.73738E-9				
0.06202	1.30963E-9	0.15502	2.86607E-9	0.20001	3.80126E-9	-0.09	-2.24777E-9				
0.06401	1.34889E-9	0.16002	2.93624E-9	0.19001	3.62732E-9	-0.11001	-2.78498E-9				
0.06602	1.38424E-9	0.16502	3.01034E-9	0.18001	3.45694E-9	-0.13001	-3.31804E-9				
0.06802	1.42791E-9	0.17002	3.08084E-9	0.17001	3.285E-9	-0.15001	-3.88674E-9				
0.07002	1.46236E-9	0.17502	3.15282E-9	0.16002	2.99394E-9	-0.17	-4.47936E-9				
0.07203	1.49374E-9	0.18002	3.19439E-9	0.15002	2.81228E-9	-0.19	-5.06181E-9				
0.07402	1.53871E-9	0.18502	3.26275E-9	0.14002	2.64251E-9	-0.20999	-5.6473E-9				
0.07603	1.57408E-9	0.19002	3.31322E-9	0.13001	2.46012E-9	-0.22999	-6.28999E-9				
0.07803	1.60792E-9	0.19502	3.37503E-9	0.12001	2.29282E-9	-0.24998	-6.96526E-9				
0.08003	1.6428E-9	0.20003	3.42402E-9	0.11001	2.127E-9	-0.24998	-7.10692E-9				
0.08202	1.67976E-9	0.20499	3.47047E-9	0.10001	1.94559E-9	-0.23077	-6.62146E-9				
0.08402	1.7097E-9	0.21	3.53344E-9	0.09001	1.76885E-9	-0.21152	-6.06927E-9				
0.08602	1.75036E-9	0.215	3.5804E-9	0.08002	1.57511E-9	-0.19231	-5.48832E-9				
0.08803	1.78246E-9	0.22002	3.64206E-9	0.07001	1.39318E-9	-0.17308	-4.90816E-9				
0.09002	1.81951E-9	0.22499	3.68211E-9	0.06001	1.19072E-9	-0.15385	-4.35337E-9				
0.09202	1.86206E-9	0.22999	3.73663E-9	0.05001	9.96029E-10	-0.13462	-3.77375E-9				
0.09402	1.89748E-9	0.235	3.77586E-9	0.04001	7.98845E-10	-0.11538	-3.21738E-9				
0.09602	1.93224E-9	0.24002	3.80096E-9	0.03001	5.94795E-10	-0.09616	-2.65188E-9				
0.09802	1.96526E-9	0.24499	3.84718E-9	0.02001	3.86822E-10	-0.07693	-2.11704E-9				
0.10003	1.99652E-9	0.24999	3.88847E-9	0.01001	1.73068E-10	-0.0577	-1.57822E-9				
0.10203	2.04494E-9	0.24999	3.86397E-9	9.13143E-6	-4.251E-11	-0.03847	-1.05048E-9				
0.10402	2.07546E-9	0.24498	3.77313E-9	-0.01001	-2.61343E-10	-0.01924	-5.35166E-10				
0.10602	2.09581E-9	0.24001	3.69167E-9	-0.02001	-4.87387E-10	1.95265E-5	-3.08394E-11				
0.10802	2.1265E-9	0.23499	3.59559E-9	-0.03001	-7.16257E-10						
0.11002	2.16279E-9	0.22998	3.49765E-9	-0.04001	-9.44507E-10						
0.11202	2.19006E-9	0.22498	3.41897E-9	-0.05	-1.18138E-9						
0.11403	2.23561E-9	0.22001	3.34637E-9	-0.06	-1.42398E-9						
0.11603	2.26111E-9	0.215	3.27354E-9	-0.07	-1.65975E-9						
0.11802	2.29079E-9	0.20999	3.17484E-9	-0.08	-1.91561E-9						
0.12002	2.32416E-9	0.20499	3.12096E-9	-0.09	-2.16795E-9						
0.12202	2.35469E-9	0.20002	3.02441E-9	-0.1	-2.43969E-9						
0.12402	2.39178E-9	0.19502	2.95598E-9	-0.11	-2.69105E-9						
0.12602	2.42392E-9	0.19002	2.89969E-9	-0.12	-2.9574E-9						
0.12802	2.44838E-9	0.18502	2.81608E-9	-0.13	-3.24279E-9						
0.13002	2.46978E-9	0.18002	2.74995E-9	-0.14	-3.52614E-9						
0.13202	2.50375E-9	0.17502	2.69937E-9	-0.15	-3.80771E-9						
0.13402	2.54039E-9	0.17002	2.60875E-9	-0.16	-4.09211E-9						
0.13602	2.54514E-9	0.16503	2.55753E-9	-0.17	-4.38297E-9						
0.13802	2.58717E-9	0.16003	2.48291E-9	-0.18	-4.67391E-9						
0.14002	2.60866E-9	0.15502	2.40637E-9	-0.19	-4.99557E-9						
0.14202	2.6396E-9	0.15003	2.33001E-9	-0.2	-5.31496E-9						
0.14403	2.66521E-9	0.14502	2.2478E-9	-0.20999	-5.6548E-9						
0.14603	2.69462E-9	0.14003	2.18195E-9	-0.22	-6.00498E-9						
0.14803	2.73397E-9	0.13502	2.11724E-9	-0.22998	-6.37119E-9						
0.15003	2.74233E-9	0.13002	2.04367E-9	-0.24001	-6.7349E-9						
0.15203	2.76957E-9	0.12503	1.96805E-9	-0.24999	-7.07961E-9						
0.15402	2.79633E-9	0.12003	1.90487E-9	-0.24999	-7.10936E-9						
0.15602	2.81337E-9	0.11503	1.83645E-9	-0.24001	-6.86197E-9						
0.15802	2.83271E-9	0.11003	1.76128E-9	-0.22998	-6.60704E-9						
0.16002	2.86085E-9	0.10503	1.7047E-9	-0.22001	-6.32139E-9						
0.16202	2.85944E-9	0.10003	1.61415E-9	-0.20999	-6.01622E-9						
0.16402	2.88102E-9	0.09504	1.53802E-9	-0.20001	-5.71866E-9						
0.16602	2.92094E-9	0.09003	1.47257E-9	-0.19	-5.43486E-9						
0.16802	2.94546E-9	0.08503	1.39421E-9	-0.18	-5.12943E-9						
0.17002	2.97227E-9	0.08003	1.32594E-9	-0.17	-4.83117E-9						
0.17202	2.99883E-9	0.07502	1.23911E-9	-0.16001	-4.53217E-9						
0.17402	3.00713E-9	0.07003	1.16528E-9	-0.15001	-4.22156E-9						
0.17602	3.03685E-9	0.06503	1.08668E-9	-0.14	-3.92909E-9						
0.17802	3.05364E-9	0.06003	1.01013E-9	-0.13	-3.62432E-9						
0.18002	3.0648E-9	0.05503	9.25992E-10	-0.12	-3.34134E-9						
0.18202	3.08537E-9	0.05003	8.45847E-10	-0.11	-3.05526E-9						
0.18402	3.11353E-9	0.04503	7.63253E-10	-0.1	-2.76357E-9						
0.18602	3.13243E-9	0.04003	6.76854E-10	-0.09	-2.47778E-9						
0.18802	3.14162E-9	0.03503	5.95354E-10	-0.08001	-2.19182E-9						
0.19002	3.17331E-9	0.03002	5.09959E-10	-0.07001	-1.90997E-9						
0.19202	3.19083E-9	0.02502	4.22602E-10	-0.06001	-1.64384E-9						
0.19402	3.21892E-9	0.02003	3.35474E-10	-0.05002	-1.36584E-9						
0.19603	3.21566E-9	0.01503	2.45813E-10	-0.04001	-1.09364E-9						
0.19803	3.24318E-9	0.01003	1.5672E-10	-0.03001	-8.24416E-10						
0.20003	3.27869E-9	0.00503	6.48057E-11	-0.02001	-5.55634E-10						
0.20198	3.30079E-9	2.87533E-5	-2.82204E-11	-0.01001	-2.92385E-10						
0.20399	3.32189E-9	-0.00499	-1.22501E-10	1.12772E-5	-3.33786E-11						
0.20598	3.35151E-9	-0.00999	-2.18441E-10								
0.20799	3.36141E-9	-0.01499	-3.13903E-10								
0.20999	3.38758E-9	-0.01999	-4.10749E-10								
0.21199	3.39278E-9	-0.02499	-5.09988E-10								
0.21399	3.40176E-9	-0.02999	-6.12035E-10								
0.21599	3.4204E-9	-0.03499	-7.145E-10								
0.218	3.43087E-9	-0.03999	-8.12273E-10								
0.22	3.43321E-9	-0.04499	-9.17974E-10								
0.22201	3.43411E-9	-0.04999	-1.03181E-9								
0.22398	3.43899E-9	-0.05499	-1.1369E-9								
0.22598	3.48515E-9	-0.05999	-1.25004E-9								
0.22798	3.47509E-9	-0.06499	-1.35441E-9								
0.22998	3.48319E-9	-0.06999	-1.4682E-9								
0.23199	3.49389E-9	-0.07499	-1.58744E-9								
0.23399	3.51194E-9	-0.07999	-1.6963E-9								
0.23599	3.53634E-9	-0.08499	-1.81847E-9								
0.238	3.55082E-9	-0.08999	-1.92366E-9								
0.24	3.56056E-9	-0.09499	-2.05037E-9								
0.24201	3.58141E-9	-0.09999	-2.16859E-9								
0.24401	3.5822E-9	-0.10499	-2.29214E-9								
0.24598	3.6151E-9	-0.10999	-2.41761E-9								
0.24798	3.62161E-9	-0.11499	-2.55566E-9								
0.24998	3.62825E-9	-0.11999	-2.69156E-9								
0.24998	3.62461E-9	-0.12499	-2.81893E-9								
0.24798	3.58117E-9	-0.12999	-2.9443E-9								
0.24598	3.54805E-9	-0.13499	-3.07816E-9								
0.24401	3.51556E-9	-0.13999	-3.20066E-9								
0.242	3.49778E-9	-0.14498	-3.34711E-9								
0.23999	3.45498E-9	-0.14999	-3.47744E-9								
0.23799	3.42231E-9	-0.15498	-3.60732E-9								
0.23598	3.39116E-9	-0.15998	-3.75199E-9								
0.23398	3.35919E-9	-0.16498	-3.90135E-9								
0.23198	3.33576E-9	-0.16998	-4.05343E-9								
0.22997	3.30321E-9	-0.17498	-4.19758E-9								
0.22798	3.27548E-9	-0.17998	-4.39171E-9								
0.22598	3.24947E-9	-0.18497	-4.54104E-9								
0.22397	3.21878E-9	-0.18997	-4.73287E-9								
0.222	3.1839E-9	-0.19497	-4.90159E-9								
0.22	3.17239E-9	-0.19998	-5.06172E-9								
0.218	3.14417E-9	-0.20496	-5.24278E-9								
0.216	3.12454E-9	-0.20996	-5.45161E-9								
0.214	3.09839E-9	-0.21497	-5.61247E-9								
0.21199	3.06651E-9	-0.21999	-5.81966E-9								
0.20999	3.02948E-9	-0.22496	-6.01995E-9								
0.20799	3.00931E-9	-0.22996	-6.18466E-9								
0.20598	2.96722E-9	-0.23497	-6.36334E-9								
0.20397	2.95532E-9	-0.23999	-6.56065E-9								
0.20198	2.92503E-9	-0.245	-6.76774E-9								
0.20002	2.88734E-9	-0.24996	-6.96035E-9								
0.19803	2.86666E-9	-0.24997	-7.01606E-9								
0.19602	2.83709E-9	-0.24499	-6.88873E-9								
0.19402	2.82102E-9	-0.23999	-6.7536E-9								
0.19202	2.80196E-9	-0.23497	-6.62114E-9								
0.19002	2.78857E-9	-0.22996	-6.49428E-9								
0.18802	2.74079E-9	-0.22496	-6.34099E-9								
0.18602	2.70965E-9	-0.21999	-6.19972E-9								
0.18402	2.68292E-9	-0.21498	-6.06862E-9								
0.18203	2.67624E-9	-0.20998	-5.9251E-9								
0.18002	2.64119E-9	-0.20497	-5.78043E-9								
0.17802	2.62745E-9	-0.19999	-5.61983E-9								
0.17602	2.6001E-9	-0.19498	-5.46476E-9								
0.17402	2.57611E-9	-0.18998	-5.31478E-9								
0.17202	2.53259E-9	-0.18498	-5.17271E-9								
0.17002	2.48832E-9	-0.17999	-5.02485E-9								
0.16802	2.4525E-9	-0.17499	-4.8763E-9								
0.16602	2.43465E-9	-0.16999	-4.73006E-9								
0.16402	2.40308E-9	-0.16498	-4.55278E-9								
0.16202	2.37781E-9	-0.15999	-4.40891E-9								
0.16002	2.36151E-9	-0.15499	-4.27057E-9								
0.15802	2.34396E-9	-0.14999	-4.13326E-9								
0.15602	2.29482E-9	-0.14499	-3.98077E-9								
0.15403	2.28792E-9	-0.13999	-3.84423E-9								
0.15203	2.26921E-9	-0.13499	-3.68007E-9								
0.15003	2.22384E-9	-0.12999	-3.54919E-9								
0.14803	2.20995E-9	-0.12499	-3.40242E-9								
0.14603	2.19878E-9	-0.11999	-3.26628E-9								
0.14403	2.16716E-9	-0.11499	-3.11149E-9								
0.14203	2.1536E-9	-0.10999	-2.96488E-9								
0.14002	2.12477E-9	-0.10499	-2.82198E-9								
0.13802	2.1019E-9	-0.09999	-2.6793E-9								
0.13603	2.08108E-9	-0.09499	-2.5385E-9								
0.13403	2.03515E-9	-0.08999	-2.39372E-9								
0.13202	2.01218E-9	-0.08499	-2.24495E-9								
0.13003	1.98083E-9	-0.08	-2.10739E-9								
0.12803	1.96513E-9	-0.07499	-1.97217E-9								
0.12603	1.92997E-9	-0.07	-1.83976E-9								
0.12403	1.91297E-9	-0.06499	-1.70416E-9								
0.12204	1.87394E-9	-0.05999	-1.56525E-9								
0.12004	1.8554E-9	-0.055	-1.42937E-9								
0.11804	1.82859E-9	-0.04999	-1.29483E-9								
0.11604	1.80628E-9	-0.04499	-1.16137E-9								
0.11403	1.77177E-9	-0.03999	-1.0332E-9								
0.11203	1.7496E-9	-0.03498	-9.02228E-10								
0.11003	1.7315E-9	-0.02999	-7.74997E-10								
0.10803	1.69715E-9	-0.02499	-6.4845E-10								
0.10602	1.67729E-9	-0.01999	-5.21559E-10								
0.10402	1.65759E-9	-0.01499	-3.94949E-10								
0.10202	1.63079E-9	-0.00999	-2.70503E-10								
0.10002	1.60247E-9	-0.00499	-1.47523E-10								
0.09802	1.56644E-9										
0.09602	1.5325E-9										
0.09402	1.51062E-9										
0.09202	1.48683E-9										
0.09002	1.45054E-9										
0.08803	1.42647E-9										
0.08603	1.39433E-9										
0.08403	1.35641E-9										
0.08202	1.33528E-9										
0.08003	1.3043E-9										
0.07803	1.2753E-9										
0.07603	1.25225E-9										
0.07403	1.21853E-9										
0.07203	1.18859E-9										
0.07003	1.16586E-9										
0.06803	1.12925E-9										
0.06603	1.10214E-9										
0.06403	1.06841E-9										
0.06203	1.03272E-9										
0.06003	9.98925E-10										
0.05803	9.69305E-10										
0.05603	9.40675E-10										
0.05403	9.0558E-10										
0.05203	8.76492E-10										
0.05003	8.4622E-10										
0.04803	8.13539E-10										
0.04603	7.84566E-10										
0.04403	7.46944E-10										
0.04203	7.17398E-10										
0.04003	6.84569E-10										
0.03803	6.53124E-10										
0.03603	6.17771E-10										
0.03403	5.87027E-10										
0.03203	5.5199E-10										
0.03003	5.17536E-10										
0.02803	4.80632E-10										
0.02603	4.43828E-10										
0.02403	4.09311E-10										
0.02203	3.73749E-10										
0.02002	3.39894E-10										
0.01802	3.03538E-10										
0.01602	2.68686E-10										
0.01403	2.31651E-10										
0.01202	1.94554E-10										
0.01002	1.58613E-10										
0.00801	1.22414E-10										
0.00602	8.54492E-11										
0.00402	4.84991E-11										
0.00202	1.10626E-11										
1.94073E-5	-2.64239E-11										
-0.00198	-6.49858E-11										
-0.00398	-1.02804E-10										
-0.00598	-1.4122E-10										
-0.00798	-1.79942E-10										
-0.00998	-2.20269E-10										
-0.01198	-2.58528E-10										
-0.01398	-2.99045E-10										
-0.01599	-3.38494E-10										
-0.01799	-3.80408E-10										
-0.01999	-4.21113E-10										
-0.02199	-4.60446E-10										
-0.02399	-4.99434E-10										
-0.02598	-5.40409E-10										
-0.02798	-5.80515E-10										
-0.02999	-6.23752E-10										
-0.03199	-6.65133E-10										
-0.03399	-7.05838E-10										
-0.03599	-7.4973E-10										
-0.03799	-7.90206E-10										
-0.03999	-8.39139E-10										
-0.04199	-8.76986E-10										
-0.04399	-9.22552E-10										
-0.046	-9.63832E-10										
-0.048	-1.01378E-9										
-0.04999	-1.05596E-9										
-0.05199	-1.10738E-9										
-0.05399	-1.14798E-9										
-0.05599	-1.19338E-9										
-0.05799	-1.23977E-9										
-0.05999	-1.29141E-9										
-0.06199	-1.33509E-9										
-0.06399	-1.38552E-9										
-0.06599	-1.4307E-9										
-0.06799	-1.47943E-9										
-0.06999	-1.52842E-9										
-0.07199	-1.57283E-9										
-0.07399	-1.62892E-9										
-0.07599	-1.67162E-9										
-0.07799	-1.71812E-9										
-0.07999	-1.76691E-9										
-0.08199	-1.81473E-9										
-0.084	-1.86244E-9										
-0.086	-1.91139E-9										
-0.088	-1.9674E-9										
-0.08999	-2.01785E-9										
-0.09199	-2.06418E-9										
-0.094	-2.11662E-9										
-0.09599	-2.17072E-9										
-0.09799	-2.23219E-9										
-0.09999	-2.27496E-9										
-0.10199	-2.32126E-9										
-0.10399	-2.37453E-9										
-0.10599	-2.42858E-9										
-0.10799	-2.47956E-9										
-0.10999	-2.52709E-9										
-0.11199	-2.58644E-9										
-0.11399	-2.64181E-9										
-0.11599	-2.6896E-9										
-0.11799	-2.73194E-9										
-0.11999	-2.79891E-9										
-0.12198	-2.85203E-9										
-0.12398	-2.9015E-9										
-0.12598	-2.96288E-9										
-0.12798	-3.02438E-9										
-0.12999	-3.09133E-9										
-0.13199	-3.15287E-9										
-0.13398	-3.21365E-9										
-0.13599	-3.28633E-9										
-0.13799	-3.34994E-9										
-0.13999	-3.39585E-9										
-0.14199	-3.46596E-9										
-0.14399	-3.52104E-9										
-0.14599	-3.59452E-9										
-0.14799	-3.64441E-9										
-0.14999	-3.69672E-9										
-0.15199	-3.77516E-9										
-0.15399	-3.83686E-9										
-0.15599	-3.89123E-9										
-0.15799	-3.9554E-9										
-0.15998	-4.00982E-9										
-0.16198	-4.07018E-9										
-0.16398	-4.13847E-9										
-0.16598	-4.19815E-9										
-0.16798	-4.27123E-9										
-0.16998	-4.33896E-9										
-0.17199	-4.42058E-9										
-0.17399	-4.47966E-9										
-0.17598	-4.57078E-9										
-0.17798	-4.60259E-9										
-0.17998	-4.69248E-9										
-0.18198	-4.77587E-9										
-0.18398	-4.83903E-9										
-0.18598	-4.9189E-9										
-0.18798	-4.97688E-9										
-0.18998	-5.04732E-9										
-0.19198	-5.10727E-9										
-0.19398	-5.15688E-9										
-0.19598	-5.24338E-9										
-0.19798	-5.30744E-9										
-0.19998	-5.3777E-9										
-0.20199	-5.42915E-9										
-0.20396	-5.505E-9										
-0.20596	-5.5884E-9										
-0.20796	-5.67542E-9										
-0.20996	-5.73843E-9										
-0.21197	-5.81577E-9										
-0.21397	-5.88149E-9										
-0.21598	-5.95585E-9										
-0.21797	-6.00481E-9										
-0.21998	-6.05444E-9										
-0.22199	-6.14204E-9										
-0.22399	-6.18909E-9										
-0.22596	-6.29667E-9										
-0.22796	-6.36308E-9										
-0.22997	-6.42795E-9										
-0.23196	-6.51132E-9										
-0.23397	-6.61021E-9										
-0.23597	-6.69137E-9										
-0.23797	-6.75988E-9										
-0.23998	-6.83142E-9										
-0.24199	-6.93772E-9										
-0.24399	-7.00408E-9										
-0.24599	-7.08849E-9										
-0.24796	-7.15028E-9										
-0.24996	-7.24318E-9										
-0.24996	-7.20414E-9										
-0.24795	-7.19239E-9										
-0.24599	-7.13456E-9										
-0.24399	-7.07542E-9										
-0.24199	-7.03601E-9										
-0.23998	-6.98192E-9										
-0.23797	-6.89886E-9										
-0.23597	-6.86216E-9										
-0.23397	-6.79603E-9										
-0.23197	-6.74377E-9										
-0.22996	-6.70359E-9										
-0.22796	-6.61476E-9										
-0.22595	-6.56689E-9										
-0.22399	-6.52612E-9										
-0.22199	-6.4451E-9										
-0.21998	-6.39992E-9										
-0.21798	-6.32574E-9										
-0.21598	-6.26135E-9										
-0.21397	-6.21837E-9										
-0.21197	-6.12889E-9										
-0.20997	-6.08536E-9										
-0.20797	-6.03785E-9										
-0.20597	-5.96455E-9										
-0.20396	-5.88929E-9										
-0.20199	-5.83942E-9										
-0.19998	-5.78179E-9										
-0.19799	-5.70972E-9										
-0.19599	-5.64027E-9										
-0.19399	-5.59785E-9										
-0.19198	-5.55103E-9										
-0.18999	-5.49002E-9										
-0.18799	-5.424E-9										
-0.18599	-5.36945E-9										
-0.18399	-5.30807E-9										
-0.18199	-5.24193E-9										
-0.17999	-5.17853E-9										
-0.17799	-5.12796E-9										
-0.17599	-5.06197E-9										
-0.17399	-5.00497E-9										
-0.17199	-4.96095E-9										
-0.16999	-4.87744E-9										
-0.168	-4.81605E-9										
-0.16599	-4.75426E-9										
-0.16399	-4.7112E-9										
-0.16199	-4.63801E-9										
-0.15999	-4.58748E-9										
-0.15799	-4.52361E-9										
-0.15599	-4.45391E-9										
-0.15399	-4.40747E-9										
-0.15199	-4.34181E-9										
-0.14999	-4.26572E-9										
-0.14799	-4.21599E-9										
-0.146	-4.14772E-9										
-0.14399	-4.07437E-9										
